time,amp,Frequency,Amplitude,Phase
0.0,14.221247898512305,20.0,20.0,0.79
0.5005005005005005,15.063380492922068,,,
1.001001001001001,15.86017328233203,,,
1.5015015015015016,16.595562805570008,,,
2.002002002002002,17.257296976302346,,,
2.5025025025025025,17.86714327244679,,,
3.0030030030030033,18.396018594562133,,,
3.503503503503504,18.845047173280214,,,
4.004004004004004,19.235637749057144,,,
4.504504504504505,19.535698575815058,,,
5.005005005005005,19.769190879191928,,,
5.505505505505506,19.913889393328176,,,
6.0060060060060065,19.992876219819774,,,
6.506506506506507,19.99396734261204,,,
7.007007007007008,19.900972075072662,,,
7.507507507507508,19.74497798154315,,,
8.008008008008009,19.49091530513255,,,
8.508508508508509,19.175430635402275,,,
9.00900900900901,18.77818240020914,,,
9.50950950950951,18.313769162628574,,,
10.01001001001001,17.763613671323633,,,
10.510510510510512,17.14839765581888,,,
11.011011011011012,16.481788855018902,,,
11.511511511511513,15.736833023218981,,,
12.012012012012013,14.925358484014522,,,
12.512512512512513,14.054696063606201,,,
13.013013013013014,13.136153864310796,,,
13.513513513513514,12.158644229541743,,,
14.014014014014016,11.130706852691945,,,
14.514514514514516,10.074548266946588,,,
15.015015015015017,8.962204778266482,,,
15.515515515515517,7.818590556225113,,,
16.016016016016017,6.651317229576327,,,
16.516516516516518,5.450800457690203,,,
17.017017017017018,4.224356630674479,,,
17.51751751751752,2.9919385044267437,,,
18.01801801801802,1.7506188019509419,,,
18.51851851851852,0.4880697464238779,,,
19.01901901901902,0.7721722556044495,,,
19.51951951951952,2.0172452039964504,,,
20.02002002002002,3.2661526624908226,,,
20.520520520520524,4.508588121783463,,,
21.021021021021024,5.718778432711363,,,
21.521521521521525,6.917808386936777,,,
22.022022022022025,8.084792501336258,,,
22.522522522522525,9.215972042954496,,,
23.023023023023026,10.299580081809081,,,
23.523523523523526,11.368030657494758,,,
24.024024024024026,12.37504996462739,,,
24.524524524524526,13.333897278021622,,,
25.025025025025027,14.254079956296728,,,
25.525525525525527,15.1039848178472,,,
26.026026026026027,15.899230041061074,,,
26.526526526526528,16.635763784091875,,,
27.027027027027028,17.29580760594625,,,
27.52752752752753,17.888701379959514,,,
28.028028028028032,18.421195622850917,,,
28.528528528528533,18.868194245345578,,,
29.029029029029033,19.255012480768606,,,
29.529529529529533,19.55394530889922,,,
30.030030030030034,19.793279735005815,,,
30.530530530530534,19.93149730059559,,,
31.031031031031034,20.001764177045995,,,
31.531531531531535,19.98248604319269,,,
32.032032032032035,19.889193475021756,,,
32.532532532532535,19.728893752049384,,,
33.033033033033036,19.477313369110476,,,
33.533533533533536,19.145543591035498,,,
34.034034034034036,18.757258312086837,,,
34.53453453453454,18.28494371012179,,,
35.03503503503504,17.73567127906614,,,
35.53553553553554,17.12314789067157,,,
36.03603603603604,16.43567810728573,,,
36.53653653653654,15.69011127031464,,,
37.03703703703704,14.873023562048074,,,
37.53753753753754,14.000860235365193,,,
38.03803803803804,13.087796094987377,,,
38.53853853853854,12.111564109979787,,,
39.03903903903904,11.085892837549915,,,
39.53953953953954,10.007113538820198,,,
40.04004004004004,8.914154082910748,,,
40.54054054054055,7.766401972157777,,,
41.04104104104105,6.587510994186174,,,
41.54154154154155,5.394695563465905,,,
42.04204204204205,4.167473042182241,,,
42.54254254254255,2.9406699767661952,,,
43.04304304304305,1.6827470825220803,,,
43.54354354354355,0.4245379872312179,,,
44.04404404404405,0.8316636269997573,,,
44.54454454454455,2.087212712626511,,,
45.04504504504505,3.321152762732622,,,
45.54554554554555,4.5618306632573615,,,
46.04604604604605,5.777710145152278,,,
46.54654654654655,6.972262597375138,,,
47.04704704704705,8.141391101917868,,,
47.54754754754755,9.2662278880197,,,
48.04804804804805,10.370876764417638,,,
48.54854854854855,11.413499399850616,,,
49.04904904904905,12.426688115688005,,,
49.54954954954955,13.38418911925113,,,
50.050050050050054,14.292360812481665,,,
50.550550550550554,15.147124385439572,,,
51.051051051051054,15.933354291938263,,,
51.551551551551555,16.659549118781175,,,
52.052052052052055,17.32863638791846,,,
52.552552552552555,17.93288013470484,,,
53.053053053053056,18.443848840700916,,,
53.553553553553556,18.88978215264854,,,
54.054054054054056,19.261974214575222,,,
54.55455455455456,19.558647904211984,,,
55.05505505505506,19.78334018507263,,,
55.55555555555556,19.928163000106032,,,
56.056056056056065,20.00137435147334,,,
56.556556556556565,19.97963828090909,,,
57.057057057057065,19.883688938177983,,,
57.557557557557566,19.705774707133997,,,
58.058058058058066,19.472635242945497,,,
58.558558558558566,19.139430536914546,,,
59.05905905905907,18.73739130999454,,,
59.55955955955957,18.25921130145975,,,
60.06006006006007,17.702607849774704,,,
60.56056056056057,17.091139743324337,,,
61.06106106106107,16.40582791831806,,,
61.56156156156157,15.64948488228965,,,
62.06206206206207,14.837141876562008,,,
62.56256256256257,13.953370249787767,,,
63.06306306306307,13.033851638198275,,,
63.56356356356357,12.062337349426517,,,
64.06406406406407,11.017551346219234,,,
64.56456456456458,9.965622785242347,,,
65.06506506506507,8.85182502636089,,,
65.56556556556558,7.706170396467304,,,
66.06606606606607,6.5443097413992914,,,
66.56656656656658,5.326632654063503,,,
67.06706706706707,4.114191026436123,,,
67.56756756756758,2.8627385601285966,,,
68.06806806806807,1.615496974488083,,,
68.56856856856858,0.3635357756792229,,,
69.06906906906907,0.8956524091826864,,,
69.56956956956958,2.1444018553734576,,,
70.07007007007007,3.395107676289918,,,
70.57057057057058,4.618627168276699,,,
71.07107107107107,5.837628931051397,,,
71.57157157157158,7.03431646139275,,,
72.07207207207207,8.190566576155193,,,
72.57257257257258,9.323322583914575,,,
73.07307307307308,10.416333552902897,,,
73.57357357357358,11.465545706229214,,,
74.07407407407408,12.478495172303248,,,
74.57457457457458,13.428456486878519,,,
75.07507507507508,14.339386396732193,,,
75.57557557557558,15.18733831003741,,,
76.07607607607608,15.970499468838362,,,
76.57657657657658,16.70074317188633,,,
77.07707707707708,17.353034395348054,,,
77.57757757757759,17.950689215141654,,,
78.07807807807808,18.46552775994056,,,
78.57857857857859,18.92222323762947,,,
79.07907907907908,19.283254622924098,,,
79.57957957957959,19.579977604146272,,,
80.08008008008008,19.795433385463937,,,
80.58058058058059,19.93934153212002,,,
81.0810810810811,19.99662617162944,,,
81.58158158158159,19.97525201312395,,,
82.0820820820821,19.88180221939812,,,
82.58258258258259,19.705894031727205,,,
83.0830830830831,19.453019959358507,,,
83.58358358358359,19.12676518507805,,,
84.0840840840841,18.710068639580747,,,
84.58458458458459,18.235577166229803,,,
85.0850850850851,17.67715025116656,,,
85.58558558558559,17.056964398417385,,,
86.0860860860861,16.35888246085701,,,
86.58658658658659,15.609521946940474,,,
87.0870870870871,14.793329774285771,,,
87.58758758758759,13.919452307705207,,,
88.0880880880881,12.987756668285346,,,
88.58858858858859,12.010942563547705,,,
89.0890890890891,10.978902650989632,,,
89.5895895895896,9.909725634371435,,,
90.0900900900901,8.799801417206616,,,
90.5905905905906,7.65277355311382,,,
91.0910910910911,6.474002831022403,,,
91.5915915915916,5.267289181834518,,,
92.0920920920921,4.043937162506673,,,
92.5925925925926,2.804216002449858,,,
93.0930930930931,1.5507463311876823,,,
93.5935935935936,0.28973600928817617,,,
94.0940940940941,0.9578440247807107,,,
94.5945945945946,2.2081714373359858,,,
95.0950950950951,3.4515475078549596,,,
95.5955955955956,4.6985404238055075,,,
96.0960960960961,5.899429730627685,,,
96.59659659659661,7.085956707738554,,,
97.0970970970971,8.25528391389764,,,
97.59759759759761,9.382844559235727,,,
98.0980980980981,10.460326197885827,,,
98.59859859859861,11.52191844909718,,,
99.0990990990991,12.528384433558246,,,
99.59959959959961,13.4811695262973,,,
100.10010010010011,14.378114726228617,,,
100.60060060060061,15.225659191174346,,,
101.10110110110111,16.0149568825595,,,
101.60160160160162,16.727305007710708,,,
102.10210210210211,17.388197068513154,,,
102.60260260260262,17.972140470211773,,,
103.10310310310311,18.491954498254508,,,
103.60360360360362,18.92839969993955,,,
104.10410410410411,19.30018326340522,,,
104.60460460460462,19.585939969459353,,,
105.10510510510511,19.803562509723115,,,
105.60560560560562,19.945320660292012,,,
106.10610610610611,20.0010731084312,,,
106.60660660660662,19.971538296227457,,,
107.10710710710711,19.880370355152472,,,
107.60760760760762,19.689354262143883,,,
108.10810810810811,19.439888153638943,,,
108.60860860860862,19.10489430752443,,,
109.10910910910911,18.693443278036725,,,
109.60960960960962,18.217136054489686,,,
110.11011011011011,17.640541972932077,,,
110.61061061061062,17.017672880639214,,,
111.11111111111111,16.327278480049824,,,
111.61161161161162,15.57596433267515,,,
112.11211211211213,14.75399251440822,,,
112.61261261261262,13.8681448542749,,,
113.11311311311313,12.93969484986431,,,
113.61361361361362,11.960912836538457,,,
114.11411411411413,10.922914883955567,,,
114.61461461461462,9.849852467302844,,,
115.11511511511513,8.746139562459733,,,
115.61561561561562,7.593671610038591,,,
116.11611611611613,6.416098154670194,,,
116.61661661661662,5.207915602537108,,,
117.11711711711713,3.9915132540474656,,,
117.61761761761763,2.74155685020673,,,
118.11811811811813,1.4916391713565458,,,
118.61861861861863,0.22821208069806126,,,
119.11911911911913,1.0179753043291797,,,
119.61961961961963,2.273732264788092,,,
120.12012012012013,3.5233604985289446,,,
120.62062062062063,4.750409382343325,,,
121.12112112112113,5.963289863328096,,,
121.62162162162163,7.142450842102638,,,
122.12212212212214,8.313869569616042,,,
122.62262262262263,9.435084796636533,,,
123.12312312312314,10.520313444130792,,,
123.62362362362363,11.573241320765849,,,
124.12412412412414,12.571053547082476,,,
124.62462462462463,13.531713792128832,,,
125.12512512512514,14.425472109135832,,,
125.62562562562563,15.268273429685992,,,
126.12612612612614,16.047440238894346,,,
126.62662662662663,16.77449888487852,,,
127.12712712712714,17.421300623480175,,,
127.62762762762763,18.003210882926613,,,
128.12812812812814,18.510485595018572,,,
128.62862862862863,18.94980476689937,,,
129.12912912912915,19.317836596575823,,,
129.62962962962965,19.609275762586353,,,
130.13013013013014,19.81647395447315,,,
130.63063063063063,19.944046837990644,,,
131.13113113113116,20.00277503062096,,,
131.63163163163165,19.967963526831916,,,
132.13213213213214,19.87065862448066,,,
132.63263263263264,19.684131122893437,,,
133.13313313313316,19.421253886363925,,,
133.63363363363365,19.087040460548817,,,
134.13413413413414,18.663243606767164,,,
134.63463463463464,18.17422975230999,,,
135.13513513513516,17.619991028587574,,,
135.63563563563565,16.99131211911713,,,
136.13613613613614,16.297279897750617,,,
136.63663663663664,15.525865195381906,,,
137.13713713713716,14.717815547060802,,,
137.63763763763765,13.832217557351358,,,
138.13813813813815,12.895649334535646,,,
138.63863863863864,11.907984687791764,,,
139.13913913913916,10.872125526336898,,,
139.63963963963965,9.797236030885628,,,
140.14014014014015,8.675141996763616,,,
140.64064064064064,7.533491648608567,,,
141.14114114114116,6.354645381284253,,,
141.64164164164166,5.144192729419806,,,
142.14214214214215,3.926699393724658,,,
142.64264264264264,2.677306214001173,,,
143.14314314314316,1.4298165526207112,,,
143.64364364364366,0.17687621302687992,,,
144.14414414414415,1.0840515977833258,,,
144.64464464464467,2.3323065190754377,,,
145.14514514514516,3.5751799549916026,,,
145.64564564564566,4.809861409327909,,,
146.14614614614615,6.020493388407024,,,
146.64664664664667,7.203541290871126,,,
147.14714714714717,8.35370926304013,,,
147.64764764764766,9.48862626887528,,,
148.14814814814815,10.57509748437962,,,
148.64864864864867,11.620547040445809,,,
149.14914914914917,12.627652449995617,,,
149.64964964964966,13.568294898928087,,,
150.15015015015015,14.47972910612134,,,
150.65065065065068,15.310445217916065,,,
151.15115115115117,16.081730788626064,,,
151.65165165165166,16.80609159763639,,,
152.15215215215215,17.45334483042855,,,
152.65265265265268,18.035528830623555,,,
153.15315315315317,18.546494367328027,,,
153.65365365365366,18.979028572848204,,,
154.15415415415416,19.328413612409737,,,
154.65465465465468,19.619528577122928,,,
155.15515515515517,19.828147286810132,,,
155.65565565565566,19.948487196388186,,,
156.15615615615616,19.999997059527672,,,
156.65665665665668,19.96880620187126,,,
157.15715715715717,19.85596292842892,,,
157.65765765765767,19.670870183374372,,,
158.15815815815816,19.402667546804043,,,
158.65865865865868,19.061807967970864,,,
159.15915915915917,18.644626525454477,,,
159.65965965965967,18.15746485484591,,,
160.16016016016016,17.585708030323726,,,
160.66066066066068,16.95650504687171,,,
161.16116116116117,16.264337078741107,,,
161.66166166166167,15.486993547204433,,,
162.1621621621622,14.665443643115607,,,
162.66266266266268,13.788145228853345,,,
163.16316316316318,12.842380693940148,,,
163.66366366366367,11.853140563395765,,,
164.1641641641642,10.820899279958539,,,
164.66466466466468,9.741007054783037,,,
165.16516516516518,8.62803773372991,,,
165.66566566566567,7.473463943926245,,,
166.1661661661662,6.292143096645478,,,
166.66666666666669,5.088185189766493,,,
167.16716716716718,3.8532003631111276,,,
167.66766766766767,2.622303685504777,,,
168.1681681681682,1.3688321865789468,,,
168.6686686686687,0.11124687154145153,,,
169.16916916916918,1.1522793374365772,,,
169.66966966966967,2.397789949004211,,,
170.1701701701702,3.6385512756917984,,,
170.6706706706707,4.874412315045842,,,
171.17117117117118,6.0832423569413265,,,
171.67167167167167,7.268868108638497,,,
172.1721721721722,8.416569089411531,,,
172.6726726726727,9.549200638033309,,,
173.17317317317318,10.634007227896882,,,
173.67367367367368,11.679522103336282,,,
174.1741741741742,12.666882584538975,,,
174.6746746746747,13.611349419085776,,,
175.17517517517518,14.511800740903965,,,
175.67567567567568,15.351635676396988,,,
176.1761761761762,16.121014017715495,,,
176.6766766766767,16.830434683535692,,,
177.17717717717719,17.482048608411386,,,
177.6776776776777,18.060677861209204,,,
178.1781781781782,18.566288201252377,,,
178.6786786786787,18.992019243636655,,,
179.1791791791792,19.347974940041723,,,
179.6796796796797,19.631702053308754,,,
180.1801801801802,19.825464366643516,,,
180.6806806806807,19.964661723578907,,,
181.1811811811812,20.00235456520406,,,
181.6816816816817,19.96721795780072,,,
182.1821821821822,19.845119653929743,,,
182.6826826826827,19.661208832972896,,,
183.1831831831832,19.398673557740373,,,
183.6836836836837,19.039890033373474,,,
184.1841841841842,18.62949333471007,,,
184.6846846846847,18.122961429856144,,,
185.1851851851852,17.557412355332847,,,
185.6856856856857,16.933134073445338,,,
186.1861861861862,16.220449976129704,,,
186.6866866866867,15.449675927878975,,,
187.1871871871872,14.625492242768741,,,
187.6876876876877,13.734708325463634,,,
188.1881881881882,12.793605053495238,,,
188.6886886886887,11.802051337103812,,,
189.1891891891892,10.768170041563648,,,
189.68968968968971,9.68534639369855,,,
190.1901901901902,8.55693782730146,,,
190.6906906906907,7.416693214416208,,,
191.1911911911912,6.232991070441043,,,
191.69169169169172,5.025028743795213,,,
192.1921921921922,3.797389744539644,,,
192.6926926926927,2.5652133622548865,,,
193.19319319319322,1.2998859700360614,,,
193.69369369369372,0.04554944510353998,,,
194.1941941941942,1.2107968313571906,,,
194.6946946946947,2.469245883765752,,,
195.19519519519523,3.707117395286174,,,
195.69569569569572,4.92695253639375,,,
196.1961961961962,6.1392750782986525,,,
196.6966966966967,7.326683263613525,,,
197.19719719719723,8.4848411655684,,,
197.69769769769772,9.59550211207275,,,
198.1981981981982,10.678326694564307,,,
198.6986986986987,11.725270222659201,,,
199.19919919919923,12.72088202689275,,,
199.69969969969972,13.672326558297181,,,
200.20020020020021,14.55847996277305,,,
200.7007007007007,15.39083427937545,,,
201.20120120120123,16.161325117716412,,,
201.70170170170172,16.874636685830886,,,
202.20220220220222,17.510055443935403,,,
202.7027027027027,18.08355553377065,,,
203.20320320320323,18.577911023912897,,,
203.70370370370372,19.025261866877198,,,
204.20420420420422,19.36799323038713,,,
204.7047047047047,19.642900613750584,,,
205.20520520520523,19.84598727924168,,,
205.70570570570572,19.961360167708907,,,
206.20620620620622,19.99517926213208,,,
206.7067067067067,19.959803832185003,,,
207.20720720720723,19.8315956983324,,,
207.70770770770773,19.64547422513637,,,
208.20820820820822,19.378947018138078,,,
208.70870870870874,19.019329832389914,,,
209.20920920920923,18.606059244856677,,,
209.70970970970973,18.105166878864637,,,
210.21021021021022,17.527410134106326,,,
210.71071071071074,16.891404254950576,,,
211.21121121121124,16.184502688420118,,,
211.71171171171173,15.417513885516822,,,
212.21221221221222,14.579033391976305,,,
212.71271271271274,13.692835112814477,,,
213.21321321321324,12.748413171669393,,,
213.71371371371373,11.753794678884272,,,
214.21421421421422,10.720800598387767,,,
214.71471471471475,9.638183177472113,,,
215.21521521521524,8.50720401645001,,,
215.71571571571573,7.359386828272324,,,
216.21621621621622,6.179998659584705,,,
216.71671671671675,4.960158323069898,,,
217.21721721721724,3.737960052667853,,,
217.71771771771773,2.5014339492881787,,,
218.21821821821823,1.241098905168968,,,
218.71871871871875,0.015099872589665508,,,
219.21921921921924,1.2741274651456127,,,
219.71971971971973,2.5303518065185866,,,
220.22022022022023,3.7629514848383185,,,
220.72072072072075,4.990286462883691,,,
221.22122122122124,6.20573525414913,,,
221.72172172172174,7.38585099055811,,,
222.22222222222223,8.537522909047418,,,
222.72272272272275,9.655023757710278,,,
223.22322322322324,10.739166170670615,,,
223.72372372372374,11.772167994488303,,,
224.22422422422426,12.772251282476642,,,
224.72472472472475,13.711037143770655,,,
225.22522522522524,14.602687646498195,,,
225.72572572572574,15.427595938946194,,,
226.22622622622626,16.203870116464913,,,
226.72672672672675,16.900209664042308,,,
227.22722722722725,17.54023917581276,,,
227.72772772772774,18.118108143573156,,,
228.22822822822826,18.608069434293657,,,
228.72872872872875,19.036218588314572,,,
229.22922922922925,19.392339656994583,,,
229.72972972972974,19.6584479973544,,,
230.23023023023026,19.850357372707577,,,
230.73073073073076,19.964027061574363,,,
231.23123123123125,19.99379813247799,,,
231.73173173173174,19.950215071636894,,,
232.23223223223226,19.832995410033188,,,
232.73273273273276,19.643149784026406,,,
233.23323323323325,19.35187964203521,,,
233.73373373373374,19.00167172325229,,,
234.23423423423426,18.5777392399648,,,
234.73473473473476,18.078702574350913,,,
235.23523523523525,17.49834807426344,,,
235.73573573573574,16.858398620084078,,,
236.23623623623627,16.146705453365165,,,
236.73673673673676,15.372942577724595,,,
237.23723723723725,14.537971503707636,,,
237.73773773773775,13.645840984123677,,,
238.23823823823827,12.698381244145507,,,
238.73873873873876,11.70840007220413,,,
239.23923923923925,10.661284087510696,,,
239.73973973973975,9.576915349552232,,,
240.24024024024027,8.454025885567031,,,
240.74074074074076,7.302154505997936,,,
241.24124124124126,6.112946794721078,,,
241.74174174174178,4.899243624327768,,,
242.24224224224227,3.675670175462571,,,
242.74274274274276,2.4375615561765165,,,
243.24324324324326,1.18376607278311,,,
243.74374374374378,0.07547525014155437,,,
244.24424424424427,1.3336863757751791,,,
244.74474474474476,2.5791021824722336,,,
245.24524524524526,3.829323786745821,,,
245.74574574574578,5.056116346760932,,,
246.24624624624627,6.267320994965268,,,
246.74674674674677,7.442684220154049,,,
247.24724724724726,8.58878765802844,,,
247.74774774774778,9.704246052333753,,,
248.24824824824827,10.78382858824804,,,
