time,amp,Frequency,Amplitude,Phase
0.0,61.70825243389518,20.0,200.0,0.79
0.5005005005005005,77.75861577546547,20.0,200.0,4.49
1.001001001001001,93.83564230203383,20.0,200.0,0.61
1.5015015015015016,109.38539555128352,,,
2.002002002002002,124.50347715416072,,,
2.5025025025025025,139.11452192745548,,,
3.0030030030030033,153.3387793863337,,,
3.503503503503504,166.66220735951302,,,
4.004004004004004,179.6098706009387,,,
4.504504504504505,191.63922346955218,,,
5.005005005005005,203.17142254947836,,,
5.505505505505506,213.6546473523776,,,
6.0060060060060065,223.54732151388401,,,
6.506506506506507,232.17739490806133,,,
7.007007007007008,240.32460000563495,,,
7.507507507507508,247.05442253311833,,,
8.008008008008009,253.06427830248327,,,
8.508508508508509,258.08406953863533,,,
9.00900900900901,262.06971340545306,,,
9.50950950950951,265.061303341542,,,
10.01001001001001,266.8788131967156,,,
10.510510510510512,267.59506141140344,,,
11.011011011011012,267.35813961165866,,,
11.511511511511513,266.22407934710566,,,
12.012012012012013,263.9154266322613,,,
12.512512512512513,260.6129509286061,,,
13.013013013013014,256.191270781442,,,
13.513513513513514,250.48835039361498,,,
14.014014014014016,244.28236839389348,,,
14.514514514514516,236.82024916991725,,,
15.015015015015017,228.5170918007288,,,
15.515515515515517,219.27181296524515,,,
16.016016016016017,209.15867371731292,,,
16.516516516516518,198.26795273258344,,,
17.017017017017018,186.71838887011745,,,
17.51751751751752,174.09494899464906,,,
18.01801801801802,161.25885916626567,,,
18.51851851851852,147.1855044562727,,,
19.01901901901902,133.06107857166256,,,
19.51951951951952,118.19465055936539,,,
20.02002002002002,102.59670863036504,,,
20.520520520520524,87.04794152196044,,,
21.021021021021024,70.97587240118773,,,
21.521521521521525,54.51469779846404,,,
22.022022022022025,37.95247841332131,,,
22.522522522522525,21.058426559047376,,,
23.023023023023026,4.306901709665551,,,
23.523523523523526,12.512266805789649,,,
24.024024024024026,29.218697412690943,,,
24.524524524524526,45.94176133058823,,,
25.025025025025027,62.42082113929643,,,
25.525525525525527,78.70469613802477,,,
26.026026026026027,94.64227390498176,,,
26.526526526526528,110.20231744817913,,,
27.027027027027028,125.37469118909652,,,
27.52752752752753,139.83079070732188,,,
28.028028028028032,153.99052030967752,,,
28.528528528528533,167.4784705061132,,,
29.029029029029033,180.1080230613598,,,
29.529529529529533,192.3418392411122,,,
30.030030030030034,203.53226948716755,,,
30.530530530530534,214.12718498618253,,,
31.031031031031034,223.76088698948786,,,
31.531531531531535,232.69156237669813,,,
32.032032032032035,240.618531873403,,,
32.532532532532535,247.4573869979325,,,
33.033033033033036,253.40942961846085,,,
33.533533533533536,258.50560681155537,,,
34.034034034034036,262.2904659458427,,,
34.53453453453454,265.06126886466126,,,
35.03503503503504,266.9462183211683,,,
35.53553553553554,267.840730257796,,,
36.03603603603604,267.6360957459302,,,
36.53653653653654,266.1017391973128,,,
37.03703703703704,263.7954906646678,,,
37.53753753753754,260.413776278858,,,
38.03803803803804,255.8210979269046,,,
38.53853853853854,250.5321394705845,,,
39.03903903903904,243.95898502450547,,,
39.53953953953954,236.37874926086513,,,
40.04004004004004,228.01492549814822,,,
40.54054054054055,218.94773308790133,,,
41.04104104104105,208.6903095098852,,,
41.54154154154155,197.8518824951774,,,
42.04204204204205,186.07069409327983,,,
42.54254254254255,173.41051013746448,,,
43.04304304304305,160.40998192261034,,,
43.54354354354355,146.61681939276923,,,
44.04404404404405,132.24605980495704,,,
44.54454454454455,117.29653920784675,,,
45.04504504504505,102.05801473726527,,,
45.54554554554555,86.03983532456635,,,
46.04604604604605,70.09164456800131,,,
46.54654654654655,53.67945085035799,,,
47.04704704704705,37.12612772310455,,,
47.54754754754755,20.360622466515263,,,
48.04804804804805,3.6195553928508915,,,
48.54854854854855,13.287222112069045,,,
49.04904904904905,29.979086494427694,,,
49.54954954954955,46.70193938711204,,,
50.050050050050054,63.297084450952184,,,
50.550550550550554,79.44819452773218,,,
51.051051051051054,95.41793520642227,,,
51.551551551551555,110.88877448696725,,,
52.052052052052055,126.12182220793073,,,
52.552552552552555,140.57223622530543,,,
53.053053053053056,154.68063966375897,,,
53.553553553553556,168.03345705399371,,,
54.054054054054056,180.9758517012601,,,
54.55455455455456,192.8145202516139,,,
55.05505505505506,204.21369479787262,,,
55.55555555555556,214.7233616126835,,,
56.056056056056065,224.3550985748309,,,
56.556556556556565,233.11412130033588,,,
57.057057057057065,240.82484374010417,,,
57.557557557557566,247.68522205545622,,,
58.058058058058066,253.67213547763376,,,
58.558558558558566,258.49950845975576,,,
59.05905905905907,262.5095752298311,,,
59.55955955955957,265.12358137371365,,,
60.06006006006007,266.99439943969804,,,
60.56056056056057,267.6056570826241,,,
61.06106106106107,267.3573122926323,,,
61.56156156156157,266.0526075998048,,,
62.06206206206207,263.4609632208064,,,
62.56256256256257,260.21545977306295,,,
63.06306306306307,255.55462855476478,,,
63.56356356356357,249.9807232820833,,,
64.06406406406407,243.5738543659349,,,
64.56456456456458,235.90239885874198,,,
65.06506506506507,227.7089757640738,,,
65.56556556556558,218.31842845834748,,,
66.06606606606607,208.12088772521398,,,
66.56656656656658,197.13052660238407,,,
67.06706706706707,185.42321459163813,,,
67.56756756756758,172.86997412946707,,,
68.06806806806807,159.73886847178866,,,
68.56856856856858,145.85734403794405,,,
69.06906906906907,131.4806970069432,,,
69.56956956956958,116.63826096697936,,,
70.07007007007007,101.32293232236327,,,
70.57057057057058,85.33498128276858,,,
71.07107107107107,69.16782334747111,,,
71.57157157157158,52.91712404895795,,,
72.07207207207207,36.2715849245084,,,
72.57257257257258,19.522569416212995,,,
73.07307307307308,2.7413074724600754,,,
73.57357357357358,13.972853799819841,,,
74.07407407407408,30.832963573242004,,,
74.57457457457458,47.55859443989701,,,
75.07507507507508,64.0314553600497,,,
75.57557557557558,80.21846728750543,,,
76.07607607607608,96.18260590221979,,,
76.57657657657658,111.61404259502642,,,
77.07707707707708,126.84064655517743,,,
77.57757757757759,141.30855096491217,,,
78.07807807807808,155.2672111750266,,,
78.57857857857859,168.693483384589,,,
79.07907907907908,181.44638353892145,,,
79.57957957957959,193.63780522373784,,,
80.08008008008008,204.78731254345,,,
80.58058058058059,215.1609253734337,,,
81.0810810810811,224.81264467604976,,,
81.58158158158159,233.42596594646778,,,
82.0820820820821,241.23470675069004,,,
82.58258258258259,248.00146838186524,,,
83.0830830830831,253.82484672416783,,,
83.58358358358359,258.78751977947104,,,
84.0840840840841,262.4676245660041,,,
84.58458458458459,265.3518710930878,,,
85.0850850850851,266.9509953431477,,,
85.58558558558559,267.73074713837434,,,
86.0860860860861,267.27185215791656,,,
86.58658658658659,265.96475182527394,,,
87.0870870870871,263.4770006782128,,,
87.58758758758759,259.8902403614787,,,
88.0880880880881,255.42408138305822,,,
88.58858858858859,249.9243375069661,,,
89.0890890890891,243.21439723799335,,,
89.5895895895896,235.8098505662798,,,
90.0900900900901,227.17928172493825,,,
90.5905905905906,217.75091719293476,,,
91.0910910910911,207.79243050952527,,,
91.5915915915916,196.53955599020745,,,
92.0920920920921,184.72843730884134,,,
92.5925925925926,172.30375613365175,,,
93.0930930930931,159.01427569205717,,,
93.5935935935936,145.36654778692514,,,
94.0940940940941,130.76508747164954,,,
94.5945945945946,115.75712037552879,,,
95.0950950950951,100.40371652266441,,,
95.5955955955956,84.75203770573124,,,
96.0960960960961,68.61194007080927,,,
96.59659659659661,51.9966536699127,,,
97.0970970970971,35.452079315062996,,,
97.59759759759761,18.675591342712256,,,
98.0980980980981,1.7186547274170307,,,
98.59859859859861,14.93392474784738,,,
99.0990990990991,31.769253550543375,,,
99.59959959959961,48.38862490089598,,,
100.10010010010011,64.93594171617337,,,
100.60060060060061,81.26231446349209,,,
101.10110110110111,96.96527516289844,,,
101.60160160160162,112.27461907484195,,,
102.10210210210211,127.36617701539834,,,
102.60260260260262,142.01120203986213,,,
103.10310310310311,155.9888618838568,,,
103.60360360360362,169.38413954758622,,,
104.10410410410411,182.12890901085166,,,
104.60460460460462,193.8939896048065,,,
105.10510510510511,205.24470308571927,,,
105.60560560560562,215.64787993248308,,,
106.10610610610611,225.14933058116273,,,
106.60660660660662,233.85972023407638,,,
107.10710710710711,241.59218537076086,,,
107.60760760760762,248.39569363229225,,,
108.10810810810811,254.2027647497736,,,
108.60860860860862,259.06225149151516,,,
109.10910910910911,262.81469287906515,,,
109.60960960960962,265.49027449796364,,,
110.11011011011011,267.2305578802999,,,
110.61061061061062,267.74141153039585,,,
111.11111111111111,267.3629679035755,,,
111.61161161161162,265.8802845691129,,,
112.11211211211213,263.2945163315313,,,
112.61261261261262,259.60666056882,,,
113.11311311311313,255.03044851086202,,,
113.61361361361362,249.42638810017007,,,
114.11411411411413,242.7806817789538,,,
114.61461461461462,235.11301957077578,,,
115.11511511511513,226.79891864033905,,,
115.61561561561562,217.4499734273361,,,
116.11611611611613,207.05339333817676,,,
116.61661661661662,196.0678392789461,,,
117.11711711711713,184.28554084377816,,,
117.61761761761763,171.67735532258746,,,
118.11811811811813,158.23311571404943,,,
118.61861861861863,144.50740238058427,,,
119.11911911911913,129.94460436809177,,,
119.61961961961963,115.01754221179836,,,
120.12012012012013,99.66594174492417,,,
120.62062062062063,83.75221290664174,,,
121.12112112112113,67.54630541776824,,,
121.62162162162163,51.19611442105895,,,
122.12212212212214,34.60725013980204,,,
122.62262262262263,17.758024455121948,,,
123.12312312312314,1.0567678915831622,,,
123.62362362362363,15.968249909570815,,,
124.12412412412414,32.645036753116166,,,
124.62462462462463,49.252326896566665,,,
125.12512512512514,65.73884518839438,,,
125.62562562562563,81.73018405717434,,,
126.12612612612614,97.52174584534099,,,
126.62662662662663,113.14763253400854,,,
127.12712712712714,128.38123811946394,,,
127.62762762762763,142.65103324210762,,,
128.12812812812814,156.72401532677182,,,
128.62862862862863,170.00590356372282,,,
129.12912912912915,182.63934092490945,,,
129.62962962962965,194.68504428955586,,,
130.13013013013014,205.81151536040338,,,
130.63063063063063,216.26763480855575,,,
131.13113113113116,225.6470954005211,,,
131.63163163163165,234.26266988000782,,,
132.13213213213214,241.87644900884527,,,
132.63263263263264,248.63475724886842,,,
133.13313313313316,254.4240621211454,,,
133.63363363363365,259.24634720069406,,,
134.13413413413414,262.82823655263905,,,
134.63463463463464,265.5025626076683,,,
135.13513513513516,267.19993490711977,,,
135.63563563563565,267.79598249743043,,,
136.13613613613614,267.395839449227,,,
136.63663663663664,265.8183009058397,,,
137.13713713713716,263.0497409426278,,,
137.63763763763765,259.4501012287407,,,
138.13813813813815,254.8264022472631,,,
138.63863863863864,249.0923852708023,,,
139.13913913913916,242.45569771390743,,,
139.63963963963965,234.8530916880399,,,
140.14014014014015,226.3834871745838,,,
140.64064064064064,216.9178930856654,,,
141.14114114114116,206.71391630220575,,,
141.64164164164166,195.5566623754925,,,
142.14214214214215,183.60595341418886,,,
142.64264264264264,170.90478904776944,,,
143.14314314314316,157.810397991208,,,
143.64364364364366,143.74985433689108,,,
144.14414414414415,129.22288772017265,,,
144.64464464464467,114.26659583681253,,,
145.14514514514516,98.86146954759361,,,
145.64564564564566,83.00331094630273,,,
146.14614614614615,66.78428849787338,,,
146.64664664664667,50.518912455468914,,,
147.14714714714717,33.82296158494574,,,
147.64764764764766,17.04390426415704,,,
148.14814814814815,0.09280857200561657,,,
148.64864864864867,16.532893050230292,,,
149.14914914914917,33.277537280267744,,,
149.64964964964966,49.990658459503955,,,
150.15015015015015,66.44378583762882,,,
150.65065065065068,82.58451093639381,,,
151.15115115115117,98.55661286602867,,,
151.65165165165166,114.04257091004276,,,
152.15215215215215,128.93955838135176,,,
152.65265265265268,143.40345345633648,,,
153.15315315315317,157.37704613664081,,,
153.65365365365366,170.46686010059108,,,
154.15415415415416,183.32102177190885,,,
154.65465465465468,195.16544488204707,,,
155.15515515515517,206.41710164919684,,,
155.65565565565566,216.65922353058204,,,
156.15615615615616,226.16759461314714,,,
156.65665665665668,234.67565699177135,,,
157.15715715715717,242.30821428672277,,,
157.65765765765767,249.00675192598058,,,
158.15815815815816,254.79154962926256,,,
158.65865865865868,259.4325191570083,,,
159.15915915915917,262.91594572139775,,,
159.65965965965967,265.63922763629745,,,
160.16016016016016,267.30278534377754,,,
160.66066066066068,267.8314378181847,,,
161.16116116116117,267.165753629601,,,
161.66166166166167,265.61699821051195,,,
162.1621621621622,262.8365342920306,,,
162.66266266266268,259.4591260511614,,,
163.16316316316318,254.60679679295114,,,
163.66366366366367,248.87875758823435,,,
164.1641641641642,242.14232488714072,,,
164.66466466466468,234.237965781226,,,
165.16516516516518,225.8254828984865,,,
165.66566566566567,216.466288599206,,,
166.1661661661662,206.15811312492886,,,
166.66666666666669,195.02183028183254,,,
167.16716716716718,182.84970928667843,,,
167.66766766766767,170.29049870778175,,,
168.1681681681682,156.93287601933577,,,
168.6686686686687,143.13293800665713,,,
169.16916916916918,128.57420861489737,,,
169.66966966966967,113.41567892204402,,,
170.1701701701702,97.9958023419685,,,
170.6706706706707,82.13608006414148,,,
171.17117117117118,66.02324936274842,,,
171.67167167167167,49.71587419342004,,,
172.1721721721722,33.018082593399626,,,
172.6726726726727,16.20173963700232,,,
173.17317317317318,0.6283103346924674,,,
173.67367367367368,17.501967173042818,,,
174.1741741741742,34.069041430509536,,,
174.6746746746747,50.830267854790804,,,
175.17517517517518,67.35036668157878,,,
175.67567567567568,83.5729199338381,,,
176.1761761761762,99.10461438005153,,,
176.6766766766767,114.74437378141093,,,
177.17717717717719,129.7677783848559,,,
177.6776776776777,144.12530848058486,,,
178.1781781781782,158.05216017123678,,,
178.6786786786787,171.31347752322048,,,
179.1791791791792,183.85662516648844,,,
179.6796796796797,195.78910496077893,,,
180.1801801801802,206.94551145389315,,,
180.6806806806807,217.31563294507905,,,
181.1811811811812,226.65870559868154,,,
181.6816816816817,235.0900235878059,,,
182.1821821821822,242.62387653151995,,,
182.6826826826827,249.23375464763447,,,
183.1831831831832,254.87287067350974,,,
183.6836836836837,259.6474851220391,,,
184.1841841841842,263.2126842687419,,,
184.6846846846847,265.7249131121338,,,
185.1851851851852,267.22293377285047,,,
185.6856856856857,267.8497485401646,,,
186.1861861861862,267.1970142981428,,,
186.6866866866867,265.57555347323864,,,
187.1871871871872,262.88460982079107,,,
187.6876876876877,258.8668524781522,,,
188.1881881881882,254.15210410071435,,,
188.6886886886887,248.57139961209185,,,
189.1891891891892,241.58905371649467,,,
189.68968968968971,233.998289381564,,,
190.1901901901902,225.5637507306354,,,
190.6906906906907,215.90441170491312,,,
191.1911911911912,205.5710517213998,,,
191.69169169169172,194.42806180580675,,,
192.1921921921922,182.38999854753416,,,
192.6926926926927,169.7492680074351,,,
193.19319319319322,156.33953654357697,,,
193.69369369369372,142.36248246421704,,,
194.1941941941942,127.84149950347874,,,
194.6946946946947,112.67667310065875,,,
195.19519519519523,97.37872033694585,,,
195.69569569569572,81.42975557641171,,,
196.1961961961962,65.15188438543733,,,
196.6966966966967,48.83476255528733,,,
197.19719719719723,32.145305358145166,,,
197.69769769769772,15.368517587804439,,,
198.1981981981982,1.513690390987999,,,
198.6986986986987,18.34370406799559,,,
199.19919919919923,35.0409833211156,,,
199.69969969969972,51.78255513976519,,,
200.20020020020021,68.1672556572809,,,
200.7007007007007,84.18816941809904,,,
201.20120120120123,100.06858015054384,,,
201.70170170170172,115.45970548171438,,,
202.20220220220222,130.43261139685657,,,
202.7027027027027,144.7682511090898,,,
203.20320320320323,158.5788508383485,,,
203.70370370370372,171.84003078032484,,,
204.20420420420422,184.52634081690334,,,
204.7047047047047,196.3838563070614,,,
205.20520520520523,207.4471585088389,,,
205.70570570570572,217.69234833534912,,,
206.20620620620622,226.8810173594687,,,
206.7067067067067,235.55007276400457,,,
207.20720720720723,243.07956201073537,,,
207.70770770770773,249.63257473976378,,,
208.20820820820822,255.24451577374063,,,
208.70870870870874,259.61207971547,,,
209.20920920920923,263.3976464739128,,,
209.70970970970973,265.78568642026573,,,
210.21021021021022,267.3031250901935,,,
210.71071071071074,267.79748083664066,,,
211.21121121121124,267.1277116070022,,,
211.71171171171173,265.41275490943315,,,
212.21221221221222,262.63741374851026,,,
212.71271271271274,258.8572745726836,,,
213.21321321321324,254.07753695244818,,,
213.71371371371373,248.22711421463632,,,
214.21421421421422,241.40441587248515,,,
214.71471471471475,233.64173637962966,,,
215.21521521521524,224.92190703571873,,,
215.71571571571573,215.35256407373151,,,
216.21621621621622,204.99424176068743,,,
216.71671671671675,193.65226872244602,,,
217.21721721721724,181.63316608387603,,,
217.71771771771773,168.96025398564933,,,
218.21821821821823,155.55013947129098,,,
218.71871871871875,141.7818481225183,,,
219.21921921921924,127.12575897986622,,,
219.71971971971973,112.00924559970505,,,
220.22022022022023,96.45678425619724,,,
220.72072072072075,80.56432596787316,,,
221.22122122122124,64.36221656506456,,,
221.72172172172174,47.92641098554952,,,
222.22222222222223,31.27617597500846,,,
222.72272272272275,14.630676348187162,,,
223.22322322322324,2.364278513033003,,,
223.72372372372374,19.224076431690442,,,
224.22422422422426,35.78108312229158,,,
224.72472472472475,52.5977701105335,,,
225.22522522522524,68.94215234592305,,,
225.72572572572574,85.06139448908738,,,
226.22622622622626,100.84351183508055,,,
226.72672672672675,115.95019553545642,,,
227.22722722722725,131.19839578237543,,,
227.72772772772774,145.64183518989958,,,
228.22822822822826,159.31211328360575,,,
228.72872872872875,172.65921951381955,,,
229.22922922922925,185.2998592769196,,,
229.72972972972974,196.90987500005824,,,
230.23023023023026,207.93553334853084,,,
230.73073073073076,218.18467815017874,,,
231.23123123123125,227.50581603024804,,,
231.73173173173174,235.9193329908867,,,
232.23223223223226,243.3739770208506,,,
232.73273273273276,249.93993400502995,,,
233.23323323323325,255.5576263007612,,,
233.73373373373374,260.1534488961306,,,
234.23423423423426,263.6333748754969,,,
234.73473473473476,265.8880757925924,,,
235.23523523523525,267.41707348990815,,,
235.73573573573574,267.88156862321983,,,
236.23623623623627,267.0519991458458,,,
236.73673673673676,265.33379578264044,,,
237.23723723723725,262.39738770459024,,,
237.73773773773775,258.59444674224466,,,
238.23823823823827,253.69459799925656,,,
238.73873873873876,247.7876709812126,,,
239.23923923923925,241.04474969168672,,,
239.73973973973975,233.29611352637446,,,
240.24024024024027,224.5197487462288,,,
240.74074074074076,214.90487865106084,,,
241.24124124124126,204.4897702440274,,,
241.74174174174178,193.05084942542067,,,
242.24224224224227,180.99506747490867,,,
242.74274274274276,168.35072148869506,,,
243.24324324324326,155.09171428185928,,,
243.74374374374378,140.9147424044472,,,
244.24424424424427,126.25227608302029,,,
244.74474474474476,111.28691313792466,,,
245.24524524524526,95.70232589883642,,,
245.74574574574578,79.80224010210266,,,
246.24624624624627,63.585223326043184,,,
246.74674674674677,47.24194346174282,,,
247.24724724724726,30.563716761856732,,,
247.74774774774778,13.574220764538007,,,
248.24824824824827,3.2225460165649187,,,
